"frequency";"r S21_phase";"i S21_phase"
1e+06;-175.691;0
1.01476e+06;-175.698;0
1.02975e+06;-175.705;0
1.04495e+06;-175.713;0
1.06038e+06;-175.72;0
1.07603e+06;-175.727;0
1.09192e+06;-175.735;0
1.10804e+06;-175.742;0
1.1244e+06;-175.75;0
1.141e+06;-175.758;0
1.15784e+06;-175.765;0
1.17494e+06;-175.773;0
1.19228e+06;-175.782;0
1.20988e+06;-175.79;0
1.22775e+06;-175.798;0
1.24587e+06;-175.807;0
1.26427e+06;-175.815;0
1.28293e+06;-175.824;0
1.30187e+06;-175.833;0
1.32109e+06;-175.842;0
1.3406e+06;-175.851;0
1.36039e+06;-175.86;0
1.38047e+06;-175.87;0
1.40085e+06;-175.879;0
1.42154e+06;-175.889;0
1.44252e+06;-175.899;0
1.46382e+06;-175.909;0
1.48543e+06;-175.919;0
1.50736e+06;-175.929;0
1.52962e+06;-175.939;0
1.5522e+06;-175.95;0
1.57512e+06;-175.961;0
1.59837e+06;-175.971;0
1.62197e+06;-175.982;0
1.64591e+06;-175.994;0
1.67021e+06;-176.005;0
1.69487e+06;-176.016;0
1.71989e+06;-176.028;0
1.74529e+06;-176.04;0
1.77105e+06;-176.052;0
1.7972e+06;-176.064;0
1.82373e+06;-176.077;0
1.85066e+06;-176.089;0
1.87798e+06;-176.102;0
1.90571e+06;-176.115;0
1.93384e+06;-176.128;0
1.96239e+06;-176.141;0
1.99137e+06;-176.155;0
2.02076e+06;-176.168;0
2.0506e+06;-176.182;0
2.08087e+06;-176.196;0
2.11159e+06;-176.211;0
2.14277e+06;-176.225;0
2.1744e+06;-176.24;0
2.20651e+06;-176.255;0
2.23908e+06;-176.27;0
2.27214e+06;-176.285;0
2.30569e+06;-176.301;0
2.33973e+06;-176.317;0
2.37427e+06;-176.333;0
2.40932e+06;-176.349;0
2.44489e+06;-176.366;0
2.48099e+06;-176.383;0
2.51762e+06;-176.4;0
2.55479e+06;-176.417;0
2.5925e+06;-176.434;0
2.63078e+06;-176.452;0
2.66962e+06;-176.47;0
2.70903e+06;-176.488;0
2.74903e+06;-176.507;0
2.78961e+06;-176.526;0
2.8308e+06;-176.545;0
2.87259e+06;-176.564;0
2.915e+06;-176.584;0
2.95804e+06;-176.604;0
3.00171e+06;-176.624;0
3.04602e+06;-176.645;0
3.09099e+06;-176.665;0
3.13663e+06;-176.687;0
3.18294e+06;-176.708;0
3.22993e+06;-176.73;0
3.27761e+06;-176.752;0
3.326e+06;-176.774;0
3.37511e+06;-176.797;0
3.42494e+06;-176.82;0
3.4755e+06;-176.843;0
3.52681e+06;-176.867;0
3.57888e+06;-176.891;0
3.63172e+06;-176.915;0
3.68534e+06;-176.94;0
3.73975e+06;-176.965;0
3.79496e+06;-176.991;0
3.85099e+06;-177.017;0
3.90784e+06;-177.043;0
3.96553e+06;-177.069;0
4.02408e+06;-177.096;0
4.08349e+06;-177.124;0
4.14378e+06;-177.151;0
4.20496e+06;-177.18;0
4.26704e+06;-177.208;0
4.33003e+06;-177.237;0
4.39396e+06;-177.267;0
4.45883e+06;-177.296;0
4.52466e+06;-177.327;0
4.59146e+06;-177.357;0
4.65925e+06;-177.388;0
4.72804e+06;-177.42;0
4.79784e+06;-177.452;0
4.86867e+06;-177.485;0
4.94055e+06;-177.517;0
5.01349e+06;-177.551;0
5.08751e+06;-177.585;0
5.16262e+06;-177.619;0
5.23884e+06;-177.654;0
5.31618e+06;-177.689;0
5.39467e+06;-177.725;0
5.47432e+06;-177.762;0
5.55514e+06;-177.799;0
5.63715e+06;-177.836;0
5.72038e+06;-177.874;0
5.80483e+06;-177.913;0
5.89053e+06;-177.952;0
5.9775e+06;-177.991;0
6.06575e+06;-178.032;0
6.1553e+06;-178.072;0
6.24617e+06;-178.114;0
6.33839e+06;-178.156;0
6.43197e+06;-178.198;0
6.52693e+06;-178.242;0
6.62329e+06;-178.285;0
6.72107e+06;-178.33;0
6.8203e+06;-178.375;0
6.92099e+06;-178.421;0
7.02317e+06;-178.467;0
7.12686e+06;-178.514;0
7.23208e+06;-178.562;0
7.33885e+06;-178.61;0
7.4472e+06;-178.659;0
7.55715e+06;-178.709;0
7.66872e+06;-178.759;0
7.78194e+06;-178.811;0
7.89683e+06;-178.862;0
8.01341e+06;-178.915;0
8.13172e+06;-178.968;0
8.25177e+06;-179.023;0
8.3736e+06;-179.078;0
8.49723e+06;-179.133;0
8.62268e+06;-179.19;0
8.74998e+06;-179.247;0
8.87916e+06;-179.305;0
9.01025e+06;-179.364;0
9.14327e+06;-179.424;0
9.27826e+06;-179.485;0
9.41524e+06;-179.546;0
9.55425e+06;-179.608;0
9.6953e+06;-179.672;0
9.83844e+06;-179.736;0
9.98369e+06;-179.801;0
1.01311e+07;-179.867;0
1.02807e+07;-179.934;0
1.04324e+07;-180.002;0
1.05865e+07;-180.071;0
1.07428e+07;-180.14;0
1.09014e+07;-180.211;0
1.10623e+07;-180.283;0
1.12256e+07;-180.356;0
1.13914e+07;-180.43;0
1.15595e+07;-180.505;0
1.17302e+07;-180.581;0
1.19034e+07;-180.658;0
1.20791e+07;-180.736;0
1.22574e+07;-180.815;0
1.24384e+07;-180.895;0
1.2622e+07;-180.977;0
1.28084e+07;-181.059;0
1.29975e+07;-181.143;0
1.31894e+07;-181.228;0
1.33841e+07;-181.315;0
1.35817e+07;-181.402;0
1.37822e+07;-181.491;0
1.39857e+07;-181.581;0
1.41922e+07;-181.672;0
1.44017e+07;-181.765;0
1.46143e+07;-181.859;0
1.48301e+07;-181.954;0
1.5049e+07;-182.05;0
1.52712e+07;-182.148;0
1.54967e+07;-182.248;0
1.57255e+07;-182.349;0
1.59576e+07;-182.451;0
1.61932e+07;-182.555;0
1.64323e+07;-182.66;0
1.66749e+07;-182.767;0
1.69211e+07;-182.875;0
1.71709e+07;-182.985;0
1.74244e+07;-183.096;0
1.76817e+07;-183.209;0
1.79427e+07;-183.324;0
1.82076e+07;-183.44;0
1.84764e+07;-183.558;0
1.87492e+07;-183.678;0
1.9026e+07;-183.8;0
1.93069e+07;-183.923;0
1.95919e+07;-184.048;0
1.98812e+07;-184.175;0
2.01747e+07;-184.243;0
2.04726e+07;-184.27;0
2.07748e+07;-184.297;0
2.10815e+07;-184.325;0
2.13928e+07;-184.353;0
2.17086e+07;-184.381;0
2.20291e+07;-184.41;0
2.23543e+07;-184.439;0
2.26843e+07;-184.468;0
2.30193e+07;-184.498;0
2.33591e+07;-184.528;0
2.3704e+07;-184.559;0
2.40539e+07;-184.59;0
2.44091e+07;-184.622;0
2.47694e+07;-184.654;0
2.51351e+07;-184.686;0
2.55062e+07;-184.719;0
2.58828e+07;-184.753;0
2.62649e+07;-184.787;0
2.66526e+07;-184.821;0
2.70461e+07;-184.856;0
2.74454e+07;-184.892;0
2.78506e+07;-184.928;0
2.82618e+07;-184.965;0
2.86791e+07;-185.002;0
2.91025e+07;-185.04;0
2.95321e+07;-185.079;0
2.99681e+07;-185.118;0
3.04106e+07;-185.165;0
3.08595e+07;-185.213;0
3.13151e+07;-185.262;0
3.17775e+07;-185.312;0
3.22466e+07;-185.363;0
3.27227e+07;-185.415;0
3.32058e+07;-185.467;0
3.3696e+07;-185.52;0
3.41935e+07;-185.574;0
3.46983e+07;-185.629;0
3.52106e+07;-185.685;0
3.57305e+07;-185.742;0
3.6258e+07;-185.799;0
3.67933e+07;-185.858;0
3.73365e+07;-185.918;0
3.78877e+07;-185.979;0
3.84471e+07;-186.04;0
3.90147e+07;-186.103;0
3.95907e+07;-186.167;0
4.01752e+07;-186.257;0
4.07683e+07;-186.408;0
4.13702e+07;-186.561;0
4.1981e+07;-186.716;0
4.26008e+07;-186.874;0
4.32297e+07;-187.034;0
4.3868e+07;-187.197;0
4.45156e+07;-187.362;0
4.51728e+07;-187.531;0
4.58397e+07;-187.701;0
4.65165e+07;-187.875;0
4.72033e+07;-188.051;0
4.79001e+07;-188.23;0
4.86073e+07;-188.412;0
4.9325e+07;-188.597;0
5.00532e+07;-188.778;0
5.07921e+07;-188.869;0
5.1542e+07;-188.962;0
5.2303e+07;-189.057;0
5.30752e+07;-189.153;0
5.38587e+07;-189.251;0
5.46539e+07;-189.35;0
5.54608e+07;-189.452;0
5.62796e+07;-189.555;0
5.71105e+07;-189.66;0
5.79536e+07;-189.767;0
5.88092e+07;-189.876;0
5.96775e+07;-189.987;0
6.05585e+07;-190.101;0
6.14526e+07;-190.217;0
6.23599e+07;-190.335;0
6.32805e+07;-190.455;0
6.42148e+07;-190.577;0
6.51628e+07;-190.701;0
6.61249e+07;-190.828;0
6.71011e+07;-190.957;0
6.80918e+07;-191.089;0
6.90971e+07;-191.223;0
7.01172e+07;-191.363;0
7.11524e+07;-191.535;0
7.22029e+07;-191.71;0
7.32688e+07;-191.888;0
7.43506e+07;-192.069;0
7.54482e+07;-192.254;0
7.65621e+07;-192.442;0
7.76925e+07;-192.634;0
7.88395e+07;-192.829;0
8.00035e+07;-193.028;0
8.11846e+07;-193.185;0
8.23832e+07;-193.345;0
8.35995e+07;-193.509;0
8.48337e+07;-193.676;0
8.60862e+07;-193.846;0
8.73571e+07;-194.02;0
8.86468e+07;-194.198;0
8.99556e+07;-194.379;0
9.12837e+07;-194.583;0
9.26313e+07;-194.792;0
9.39989e+07;-195.006;0
9.53867e+07;-195.224;0
9.67949e+07;-195.447;0
9.8224e+07;-195.674;0
9.96741e+07;-195.908;0
1.01146e+08;-196.179;0
1.02639e+08;-196.467;0
1.04154e+08;-196.76;0
1.05692e+08;-197.061;0
1.07252e+08;-197.368;0
1.08836e+08;-197.682;0
1.10443e+08;-197.993;0
1.12073e+08;-198.283;0
1.13728e+08;-198.58;0
1.15407e+08;-198.885;0
1.17111e+08;-199.197;0
1.1884e+08;-199.518;0
1.20594e+08;-199.837;0
1.22375e+08;-200.146;0
1.24181e+08;-200.464;0
1.26015e+08;-200.791;0
1.27875e+08;-201.127;0
1.29763e+08;-201.473;0
1.31679e+08;-201.875;0
1.33623e+08;-202.295;0
1.35596e+08;-202.727;0
1.37598e+08;-203.171;0
1.39629e+08;-203.628;0
1.4169e+08;-204.054;0
1.43782e+08;-204.484;0
1.45905e+08;-204.928;0
1.48059e+08;-205.387;0
1.50245e+08;-205.862;0
1.52463e+08;-206.35;0
1.54714e+08;-206.856;0
1.56998e+08;-207.381;0
1.59316e+08;-207.926;0
1.61668e+08;-208.56;0
1.64055e+08;-209.246;0
1.66477e+08;-209.957;0
1.68935e+08;-210.694;0
1.71429e+08;-211.43;0
1.7396e+08;-212.172;0
1.76528e+08;-212.946;0
1.79134e+08;-213.752;0
1.81779e+08;-214.589;0
1.84463e+08;-215.46;0
1.87186e+08;-216.37;0
1.8995e+08;-217.322;0
1.92754e+08;-218.351;0
1.956e+08;-219.427;0
1.98488e+08;-220.551;0
2.01418e+08;-221.696;0
2.04392e+08;-222.863;0
2.07409e+08;-224.077;0
2.10471e+08;-225.334;0
2.13579e+08;-226.601;0
2.16732e+08;-227.901;0
2.19932e+08;-229.221;0
2.23179e+08;-230.619;0
2.26474e+08;-231.981;0
2.29817e+08;-233.247;0
2.3321e+08;-234.277;0
2.36653e+08;-234.966;0
2.40147e+08;-235.071;0
2.43692e+08;-234.188;0
2.4729e+08;-231.63;0
2.50941e+08;-226.314;0
2.54646e+08;-216.83;0
2.58406e+08;-202.559;0
2.62221e+08;-186.494;0
2.66092e+08;-173.826;0
2.7002e+08;-166.499;0
2.74007e+08;-163.426;0
2.78052e+08;-163.175;0
2.82157e+08;-164.719;0
2.86323e+08;-167.405;0
2.9055e+08;-170.812;0
2.9484e+08;-174.667;0
2.99193e+08;-178.851;0
3.0361e+08;-183.293;0
3.08092e+08;-187.937;0
3.12641e+08;-192.781;0
3.17257e+08;-197.813;0
3.2194e+08;-202.993;0
3.26693e+08;-208.275;0
3.31517e+08;-213.569;0
3.36411e+08;-218.648;0
3.41378e+08;-223.108;0
3.46418e+08;-226.153;0
3.51532e+08;-226.226;0
3.56722e+08;-220.466;0
3.61988e+08;-205.112;0
3.67333e+08;-182.896;0
3.72756e+08;-166.266;0
3.78259e+08;-158.492;0
3.83844e+08;-155.884;0
3.89511e+08;-155.805;0
3.95261e+08;-156.916;0
4.01097e+08;-158.604;0
4.07018e+08;-160.591;0
4.13028e+08;-162.617;0
4.19125e+08;-164.595;0
4.25313e+08;-166.521;0
4.31592e+08;-168.404;0
4.37964e+08;-170.298;0
4.4443e+08;-172.036;0
4.50992e+08;-173.648;0
4.5765e+08;-175.12;0
4.64406e+08;-176.628;0
4.71263e+08;-178.12;0
4.7822e+08;-179.508;0
4.85281e+08;-180.833;0
4.92445e+08;-182.168;0
4.99716e+08;-183.578;0
5.07093e+08;-184.855;0
5.1458e+08;-185.985;0
5.22177e+08;-187.011;0
5.29886e+08;-187.996;0
5.37709e+08;-189.065;0
5.45648e+08;-190.072;0
5.53703e+08;-191.11;0
5.61878e+08;-192.225;0
5.70174e+08;-193.358;0
5.78591e+08;-194.349;0
5.87134e+08;-195.322;0
5.95802e+08;-196.259;0
6.04598e+08;-197.146;0
6.13524e+08;-198.018;0
6.22582e+08;-198.943;0
6.31774e+08;-199.906;0
6.41101e+08;-200.796;0
6.50566e+08;-201.681;0
6.60171e+08;-202.547;0
6.69917e+08;-203.35;0
6.79808e+08;-204.25;0
6.89844e+08;-205.248;0
7.00029e+08;-206.164;0
7.10364e+08;-207.118;0
7.20851e+08;-208.016;0
7.31494e+08;-208.714;0
7.42293e+08;-209.527;0
7.53252e+08;-210.372;0
7.64373e+08;-211.243;0
7.75658e+08;-212.197;0
7.87109e+08;-213.031;0
7.9873e+08;-213.933;0
8.10522e+08;-214.873;0
8.22489e+08;-215.768;0
8.34631e+08;-216.722;0
8.46954e+08;-217.545;0
8.59458e+08;-218.325;0
8.72147e+08;-219.204;0
8.85023e+08;-220.047;0
8.98089e+08;-221.098;0
9.11348e+08;-222.09;0
9.24803e+08;-223.087;0
9.38456e+08;-223.932;0
9.52311e+08;-224.825;0
9.66371e+08;-225.773;0
9.80638e+08;-226.631;0
9.95116e+08;-227.527;0
1.00981e+09;-228.442;0
1.02472e+09;-229.5;0
1.03984e+09;-230.498;0
1.0552e+09;-231.436;0
1.07078e+09;-232.393;0
1.08658e+09;-233.443;0
1.10263e+09;-234.401;0
1.1189e+09;-235.241;0
1.13542e+09;-236.19;0
1.15219e+09;-237.412;0
1.1692e+09;-238.565;0
1.18646e+09;-239.377;0
1.20398e+09;-240.384;0
1.22175e+09;-241.447;0
1.23979e+09;-242.554;0
1.25809e+09;-243.56;0
1.27667e+09;-244.72;0
1.29551e+09;-245.833;0
1.31464e+09;-246.897;0
1.33405e+09;-247.958;0
1.35375e+09;-249.144;0
1.37373e+09;-250.226;0
1.39401e+09;-251.311;0
1.41459e+09;-252.526;0
1.43548e+09;-253.685;0
1.45667e+09;-254.795;0
1.47818e+09;-256.027;0
1.5e+09;-257.221;0
