"frequency";"r S21_dB";"i S21_dB"
1e+06;40.7451;0
1.01476e+06;40.747;0
1.02975e+06;40.7489;0
1.04495e+06;40.7508;0
1.06038e+06;40.7527;0
1.07603e+06;40.7547;0
1.09192e+06;40.7567;0
1.10804e+06;40.7587;0
1.1244e+06;40.7608;0
1.141e+06;40.7629;0
1.15784e+06;40.765;0
1.17494e+06;40.7672;0
1.19228e+06;40.7693;0
1.20988e+06;40.7716;0
1.22775e+06;40.7738;0
1.24587e+06;40.7761;0
1.26427e+06;40.7784;0
1.28293e+06;40.7807;0
1.30187e+06;40.7831;0
1.32109e+06;40.7855;0
1.3406e+06;40.788;0
1.36039e+06;40.7904;0
1.38047e+06;40.793;0
1.40085e+06;40.7955;0
1.42154e+06;40.7981;0
1.44252e+06;40.8007;0
1.46382e+06;40.8034;0
1.48543e+06;40.8061;0
1.50736e+06;40.8089;0
1.52962e+06;40.8116;0
1.5522e+06;40.8145;0
1.57512e+06;40.8173;0
1.59837e+06;40.8202;0
1.62197e+06;40.8232;0
1.64591e+06;40.8262;0
1.67021e+06;40.8292;0
1.69487e+06;40.8323;0
1.71989e+06;40.8354;0
1.74529e+06;40.8386;0
1.77105e+06;40.8418;0
1.7972e+06;40.845;0
1.82373e+06;40.8483;0
1.85066e+06;40.8517;0
1.87798e+06;40.8551;0
1.90571e+06;40.8585;0
1.93384e+06;40.862;0
1.96239e+06;40.8656;0
1.99137e+06;40.8692;0
2.02076e+06;40.8728;0
2.0506e+06;40.8765;0
2.08087e+06;40.8803;0
2.11159e+06;40.8841;0
2.14277e+06;40.888;0
2.1744e+06;40.8919;0
2.20651e+06;40.8959;0
2.23908e+06;40.8999;0
2.27214e+06;40.904;0
2.30569e+06;40.9081;0
2.33973e+06;40.9123;0
2.37427e+06;40.9166;0
2.40932e+06;40.9209;0
2.44489e+06;40.9253;0
2.48099e+06;40.9298;0
2.51762e+06;40.9343;0
2.55479e+06;40.9389;0
2.5925e+06;40.9435;0
2.63078e+06;40.9482;0
2.66962e+06;40.953;0
2.70903e+06;40.9578;0
2.74903e+06;40.9627;0
2.78961e+06;40.9677;0
2.8308e+06;40.9728;0
2.87259e+06;40.9779;0
2.915e+06;40.9831;0
2.95804e+06;40.9884;0
3.00171e+06;40.9937;0
3.04602e+06;40.9991;0
3.09099e+06;41.0046;0
3.13663e+06;41.0102;0
3.18294e+06;41.0158;0
3.22993e+06;41.0216;0
3.27761e+06;41.0274;0
3.326e+06;41.0333;0
3.37511e+06;41.0392;0
3.42494e+06;41.0453;0
3.4755e+06;41.0514;0
3.52681e+06;41.0577;0
3.57888e+06;41.064;0
3.63172e+06;41.0704;0
3.68534e+06;41.0769;0
3.73975e+06;41.0835;0
3.79496e+06;41.0901;0
3.85099e+06;41.0969;0
3.90784e+06;41.1038;0
3.96553e+06;41.1107;0
4.02408e+06;41.1178;0
4.08349e+06;41.1249;0
4.14378e+06;41.1322;0
4.20496e+06;41.1395;0
4.26704e+06;41.147;0
4.33003e+06;41.1546;0
4.39396e+06;41.1622;0
4.45883e+06;41.17;0
4.52466e+06;41.1779;0
4.59146e+06;41.1859;0
4.65925e+06;41.194;0
4.72804e+06;41.2022;0
4.79784e+06;41.2105;0
4.86867e+06;41.2189;0
4.94055e+06;41.2275;0
5.01349e+06;41.2361;0
5.08751e+06;41.2449;0
5.16262e+06;41.2538;0
5.23884e+06;41.2629;0
5.31618e+06;41.272;0
5.39467e+06;41.2813;0
5.47432e+06;41.2907;0
5.55514e+06;41.3002;0
5.63715e+06;41.3099;0
5.72038e+06;41.3197;0
5.80483e+06;41.3296;0
5.89053e+06;41.3397;0
5.9775e+06;41.3499;0
6.06575e+06;41.3602;0
6.1553e+06;41.3707;0
6.24617e+06;41.3813;0
6.33839e+06;41.3921;0
6.43197e+06;41.403;0
6.52693e+06;41.4141;0
6.62329e+06;41.4253;0
6.72107e+06;41.4366;0
6.8203e+06;41.4481;0
6.92099e+06;41.4598;0
7.02317e+06;41.4716;0
7.12686e+06;41.4836;0
7.23208e+06;41.4957;0
7.33885e+06;41.508;0
7.4472e+06;41.5205;0
7.55715e+06;41.5331;0
7.66872e+06;41.5459;0
7.78194e+06;41.5589;0
7.89683e+06;41.572;0
8.01341e+06;41.5853;0
8.13172e+06;41.5988;0
8.25177e+06;41.6125;0
8.3736e+06;41.6264;0
8.49723e+06;41.6404;0
8.62268e+06;41.6546;0
8.74998e+06;41.669;0
8.87916e+06;41.6836;0
9.01025e+06;41.6984;0
9.14327e+06;41.7134;0
9.27826e+06;41.7286;0
9.41524e+06;41.7439;0
9.55425e+06;41.7595;0
9.6953e+06;41.7753;0
9.83844e+06;41.7913;0
9.98369e+06;41.8075;0
1.01311e+07;41.8239;0
1.02807e+07;41.8405;0
1.04324e+07;41.8573;0
1.05865e+07;41.8744;0
1.07428e+07;41.8916;0
1.09014e+07;41.9091;0
1.10623e+07;41.9269;0
1.12256e+07;41.9448;0
1.13914e+07;41.963;0
1.15595e+07;41.9814;0
1.17302e+07;42;0
1.19034e+07;42.0189;0
1.20791e+07;42.0381;0
1.22574e+07;42.0574;0
1.24384e+07;42.077;0
1.2622e+07;42.0969;0
1.28084e+07;42.117;0
1.29975e+07;42.1374;0
1.31894e+07;42.158;0
1.33841e+07;42.1789;0
1.35817e+07;42.2001;0
1.37822e+07;42.2215;0
1.39857e+07;42.2432;0
1.41922e+07;42.2652;0
1.44017e+07;42.2874;0
1.46143e+07;42.31;0
1.48301e+07;42.3328;0
1.5049e+07;42.3559;0
1.52712e+07;42.3793;0
1.54967e+07;42.4029;0
1.57255e+07;42.4269;0
1.59576e+07;42.4512;0
1.61932e+07;42.4757;0
1.64323e+07;42.5006;0
1.66749e+07;42.5258;0
1.69211e+07;42.5513;0
1.71709e+07;42.5771;0
1.74244e+07;42.6032;0
1.76817e+07;42.6297;0
1.79427e+07;42.6564;0
1.82076e+07;42.6835;0
1.84764e+07;42.711;0
1.87492e+07;42.7388;0
1.9026e+07;42.7669;0
1.93069e+07;42.7953;0
1.95919e+07;42.8241;0
1.98812e+07;42.8533;0
2.01747e+07;42.8698;0
2.04726e+07;42.8776;0
2.07748e+07;42.8855;0
2.10815e+07;42.8935;0
2.13928e+07;42.9017;0
2.17086e+07;42.91;0
2.20291e+07;42.9184;0
2.23543e+07;42.9269;0
2.26843e+07;42.9356;0
2.30193e+07;42.9444;0
2.33591e+07;42.9533;0
2.3704e+07;42.9624;0
2.40539e+07;42.9716;0
2.44091e+07;42.981;0
2.47694e+07;42.9905;0
2.51351e+07;43.0002;0
2.55062e+07;43.01;0
2.58828e+07;43.0199;0
2.62649e+07;43.03;0
2.66526e+07;43.0403;0
2.70461e+07;43.0507;0
2.74454e+07;43.0613;0
2.78506e+07;43.0721;0
2.82618e+07;43.083;0
2.86791e+07;43.0941;0
2.91025e+07;43.1054;0
2.95321e+07;43.1169;0
2.99681e+07;43.1285;0
3.04106e+07;43.1379;0
3.08595e+07;43.1472;0
3.13151e+07;43.1566;0
3.17775e+07;43.1662;0
3.22466e+07;43.176;0
3.27227e+07;43.1859;0
3.32058e+07;43.1959;0
3.3696e+07;43.2061;0
3.41935e+07;43.2165;0
3.46983e+07;43.227;0
3.52106e+07;43.2377;0
3.57305e+07;43.2485;0
3.6258e+07;43.2595;0
3.67933e+07;43.2707;0
3.73365e+07;43.282;0
3.78877e+07;43.2935;0
3.84471e+07;43.3052;0
3.90147e+07;43.317;0
3.95907e+07;43.3291;0
4.01752e+07;43.3408;0
4.07683e+07;43.3514;0
4.13702e+07;43.3622;0
4.1981e+07;43.3732;0
4.26008e+07;43.3843;0
4.32297e+07;43.3956;0
4.3868e+07;43.407;0
4.45156e+07;43.4186;0
4.51728e+07;43.4304;0
4.58397e+07;43.4423;0
4.65165e+07;43.4544;0
4.72033e+07;43.4666;0
4.79001e+07;43.479;0
4.86073e+07;43.4916;0
4.9325e+07;43.5044;0
5.00532e+07;43.5163;0
5.07921e+07;43.516;0
5.1542e+07;43.5157;0
5.2303e+07;43.5154;0
5.30752e+07;43.5151;0
5.38587e+07;43.5147;0
5.46539e+07;43.5144;0
5.54608e+07;43.514;0
5.62796e+07;43.5137;0
5.71105e+07;43.5133;0
5.79536e+07;43.5129;0
5.88092e+07;43.5125;0
5.96775e+07;43.512;0
6.05585e+07;43.5226;0
6.14526e+07;43.5397;0
6.23599e+07;43.5571;0
6.32805e+07;43.5746;0
6.42148e+07;43.5923;0
6.51628e+07;43.6101;0
6.61249e+07;43.6282;0
6.71011e+07;43.6464;0
6.80918e+07;43.6649;0
6.90971e+07;43.6835;0
7.01172e+07;43.7007;0
7.11524e+07;43.7059;0
7.22029e+07;43.7111;0
7.32688e+07;43.7163;0
7.43506e+07;43.7215;0
7.54482e+07;43.7268;0
7.65621e+07;43.732;0
7.76925e+07;43.7373;0
7.88395e+07;43.7426;0
8.00035e+07;43.7478;0
8.11846e+07;43.7437;0
8.23832e+07;43.7395;0
8.35995e+07;43.7352;0
8.48337e+07;43.7307;0
8.60862e+07;43.726;0
8.73571e+07;43.7211;0
8.86468e+07;43.7161;0
8.99556e+07;43.7109;0
9.12837e+07;43.7126;0
9.26313e+07;43.7144;0
9.39989e+07;43.7162;0
9.53867e+07;43.7177;0
9.67949e+07;43.7192;0
9.8224e+07;43.7204;0
9.96741e+07;43.7215;0
1.01146e+08;43.7202;0
1.02639e+08;43.718;0
1.04154e+08;43.7155;0
1.05692e+08;43.7127;0
1.07252e+08;43.7096;0
1.08836e+08;43.7062;0
1.10443e+08;43.7002;0
1.12073e+08;43.6877;0
1.13728e+08;43.6747;0
1.15407e+08;43.6611;0
1.17111e+08;43.6469;0
1.1884e+08;43.632;0
1.20594e+08;43.6196;0
1.22375e+08;43.6127;0
1.24181e+08;43.6052;0
1.26015e+08;43.5969;0
1.27875e+08;43.5878;0
1.29763e+08;43.5778;0
1.31679e+08;43.5617;0
1.33623e+08;43.5437;0
1.35596e+08;43.5245;0
1.37598e+08;43.504;0
1.39629e+08;43.4821;0
1.4169e+08;43.4483;0
1.43782e+08;43.4103;0
1.45905e+08;43.3703;0
1.48059e+08;43.328;0
1.50245e+08;43.2851;0
1.52463e+08;43.2534;0
1.54714e+08;43.219;0
1.56998e+08;43.1818;0
1.59316e+08;43.1413;0
1.61668e+08;43.1011;0
1.64055e+08;43.0586;0
1.66477e+08;43.0117;0
1.68935e+08;42.9599;0
1.71429e+08;42.8995;0
1.7396e+08;42.8305;0
1.76528e+08;42.7543;0
1.79134e+08;42.6701;0
1.81779e+08;42.5768;0
1.84463e+08;42.473;0
1.87186e+08;42.3571;0
1.8995e+08;42.2273;0
1.92754e+08;42.0671;0
1.956e+08;41.8877;0
1.98488e+08;41.6864;0
2.01418e+08;41.4572;0
2.04392e+08;41.1956;0
2.07409e+08;40.8981;0
2.10471e+08;40.5598;0
2.13579e+08;40.1804;0
2.16732e+08;39.7402;0
2.19932e+08;39.2266;0
2.23179e+08;38.6336;0
2.26474e+08;37.9335;0
2.29817e+08;37.1044;0
2.3321e+08;36.1204;0
2.36653e+08;34.9707;0
2.40147e+08;33.677;0
2.43692e+08;32.3766;0
2.4729e+08;31.4125;0
2.50941e+08;31.312;0
2.54646e+08;32.2221;0
2.58406e+08;33.7008;0
2.62221e+08;35.2587;0
2.66092e+08;36.675;0
2.7002e+08;37.8948;0
2.74007e+08;38.9337;0
2.78052e+08;39.7975;0
2.82157e+08;40.5143;0
2.86323e+08;41.1057;0
2.9055e+08;41.5869;0
2.9484e+08;41.9768;0
2.99193e+08;42.2826;0
3.0361e+08;42.513;0
3.08092e+08;42.6728;0
3.12641e+08;42.752;0
3.17257e+08;42.7508;0
3.2194e+08;42.6661;0
3.26693e+08;42.483;0
3.31517e+08;42.1917;0
3.36411e+08;41.7678;0
3.41378e+08;41.1649;0
3.46418e+08;40.3342;0
3.51532e+08;39.1984;0
3.56722e+08;37.6778;0
3.61988e+08;35.713;0
3.67333e+08;33.409;0
3.72756e+08;31.5208;0
3.78259e+08;31.5875;0
3.83844e+08;33.295;0
3.89511e+08;35.1835;0
3.95261e+08;36.7686;0
4.01097e+08;38.0113;0
4.07018e+08;38.9856;0
4.13028e+08;39.7513;0
4.19125e+08;40.3605;0
4.25313e+08;40.859;0
4.31592e+08;41.2643;0
4.37964e+08;41.586;0
4.4443e+08;41.834;0
4.50992e+08;42.0349;0
4.5765e+08;42.2305;0
4.64406e+08;42.4156;0
4.71263e+08;42.5861;0
4.7822e+08;42.7321;0
4.85281e+08;42.8782;0
4.92445e+08;43.0006;0
4.99716e+08;43.0809;0
5.07093e+08;43.1149;0
5.1458e+08;43.1537;0
5.22177e+08;43.201;0
5.29886e+08;43.2569;0
5.37709e+08;43.2951;0
5.45648e+08;43.3526;0
5.53703e+08;43.4193;0
5.61878e+08;43.4731;0
5.70174e+08;43.4782;0
5.78591e+08;43.4976;0
5.87134e+08;43.5381;0
5.95802e+08;43.5601;0
6.04598e+08;43.5735;0
6.13524e+08;43.5898;0
6.22582e+08;43.5962;0
6.31774e+08;43.5764;0
6.41101e+08;43.5636;0
6.50566e+08;43.5758;0
6.60171e+08;43.5794;0
6.69917e+08;43.5889;0
6.79808e+08;43.6026;0
6.89844e+08;43.5785;0
7.00029e+08;43.5684;0
7.10364e+08;43.5906;0
7.20851e+08;43.597;0
7.31494e+08;43.5917;0
7.42293e+08;43.578;0
7.53252e+08;43.5531;0
7.64373e+08;43.5418;0
7.75658e+08;43.5499;0
7.87109e+08;43.5531;0
7.9873e+08;43.5544;0
8.10522e+08;43.5182;0
8.22489e+08;43.5068;0
8.34631e+08;43.527;0
8.46954e+08;43.5312;0
8.59458e+08;43.5281;0
8.72147e+08;43.5082;0
8.85023e+08;43.4875;0
8.98089e+08;43.5211;0
9.11348e+08;43.5326;0
9.24803e+08;43.4844;0
9.38456e+08;43.4237;0
9.52311e+08;43.4031;0
9.66371e+08;43.4184;0
9.80638e+08;43.4159;0
9.95116e+08;43.366;0
1.00981e+09;43.3256;0
1.02472e+09;43.3436;0
1.03984e+09;43.3449;0
1.0552e+09;43.2711;0
1.07078e+09;43.2181;0
1.08658e+09;43.2344;0
1.10263e+09;43.2437;0
1.1189e+09;43.1822;0
1.13542e+09;43.1432;0
1.15219e+09;43.1662;0
1.1692e+09;43.1631;0
1.18646e+09;43.0865;0
1.20398e+09;43.055;0
1.22175e+09;43.0823;0
1.23979e+09;43.0538;0
1.25809e+09;43.0463;0
1.27667e+09;43.0712;0
1.29551e+09;43.0417;0
1.31464e+09;42.9802;0
1.33405e+09;42.9572;0
1.35375e+09;42.9556;0
1.37373e+09;42.8914;0
1.39401e+09;42.8715;0
1.41459e+09;42.8772;0
1.43548e+09;42.8075;0
1.45667e+09;42.7883;0
1.47818e+09;42.78;0
1.5e+09;42.736;0
